 BEGIN header
 Number of ions         2
 Number of branches     6
 Number of wavevectors  40
 Frequencies in         cm-1
 IR intensities in      (D/A)**2/amu
 Raman activities in    A**4 amu**(-1)
 Unit cell vectors (A)
    0.000000    2.795883    2.795883
    2.795883    0.000000    2.795883
    2.795883    2.795883   -0.000000
 Fractional Co-ordinates
     1     0.000000    0.000000    0.000000   Ge       72.589996
     2     0.250000    0.250000    0.250000   Ge       72.589996
 END header
     q-pt=    1    0.500000  0.250000  0.750000      0.0487804878
       1     143.008819                                                         
       2     143.008819                                                         
       3     207.469412                                                         
       4     207.469412                                                         
       5     268.640793                                                         
       6     268.640793                                                         
                        Phonon Eigenvectors
Mode Ion                X                                   Y                                   Z
   1   1  0.098500637349 -0.098500637349      0.415966032819  0.150908797670      0.150908797670 -0.415966032819
   1   2  0.687382771203 -0.321403892049      0.000000000000 -0.081232079766      0.081232079766  0.000000000000
   2   1 -0.536561057090  0.536561057090      0.076362081830  0.027703487899      0.027703487899 -0.076362081830
   2   2  0.126188138650 -0.059002582828      0.000000000000  0.442494300159     -0.442494300159  0.000000000000
   3   1 -0.000000000000 -0.000000000000     -0.043309091135  0.000000000000     -0.000000000000 -0.043309091135
   3   2 -0.000000000000  0.000000000000     -0.000000000000 -0.705779230797     -0.705779230797  0.000000000000
   4   1 -0.000000000000 -0.000000000000     -0.705779230797  0.000000000000     -0.000000000000 -0.705779230797
   4   2  0.000000000000 -0.000000000000      0.000000000000  0.043309091135      0.043309091135  0.000000000000
   5   1  0.401873969615 -0.401873969615      0.174042524690  0.172750276655      0.172750276655 -0.174042524690
   5   2 -0.285995108859  0.001065698642      0.000000000000  0.487305535633     -0.487305535633  0.000000000000
   6   1  0.202230484849 -0.202230484849     -0.345858639123 -0.343290673922     -0.343290673922  0.345858639123
   6   2  0.568331672514 -0.002117764511      0.000000000000  0.245221243951     -0.245221243951  0.000000000000
     q-pt=    2    0.500000  0.281250  0.718750      0.0243902439
       1     135.593024                                                         
       2     144.738918                                                         
       3     200.489894                                                         
       4     215.306187                                                         
       5     266.709188                                                         
       6     271.279845                                                         
                        Phonon Eigenvectors
Mode Ion                X                                   Y                                   Z
   1   1  0.473197271109 -0.305328804013     -0.302372836127  0.000000000000     -0.124604064724  0.275505279589
   1   2 -0.473197271109  0.305328804013      0.124604064724 -0.275505279589      0.302372836127  0.000000000000
   2   1 -0.253448783283  0.434256486867     -0.351557262666  0.000000000000      0.172906989722  0.306097503809
   2   2 -0.253448783283  0.434256486867      0.172906989722  0.306097503809     -0.351557262666  0.000000000000
   3   1 -0.102309527868 -0.091521726206     -0.490487784832  0.000000000000     -0.054428224793 -0.487458547382
   3   2 -0.102309527868 -0.091521726206     -0.054428224793 -0.487458547382     -0.490487784832  0.000000000000
   4   1 -0.084390907962 -0.082350480011     -0.492999276417  0.000000000000     -0.012063938100 -0.492851649023
   4   2  0.084390907962  0.082350480011      0.012063938100  0.492851649023      0.492999276417  0.000000000000
   5   1 -0.377922322276  0.292431650699      0.368550164831 -0.000000000000      0.092498476040 -0.356753774931
   5   2 -0.377922322276  0.292431650699      0.092498476040 -0.356753774931      0.368550164831  0.000000000000
   6   1 -0.249425430374  0.326714235736     -0.406844419189  0.000000000000      0.107226239663  0.392460080712
   6   2  0.249425430374 -0.326714235736     -0.107226239663 -0.392460080712      0.406844419189  0.000000000000
     q-pt=    3    0.500000  0.312500  0.687500      0.0243902439
       1     125.115237                                                         
       2     141.749484                                                         
       3     196.920120                                                         
       4     221.010425                                                         
       5     266.007179                                                         
       6     274.184867                                                         
                        Phonon Eigenvectors
Mode Ion                X                                   Y                                   Z
   1   1 -0.514565160643  0.242141306660      0.297144984024 -0.000000000000      0.189403464022 -0.228957352682
   1   2  0.514565160643 -0.242141306660     -0.189403464022  0.228957352682     -0.297144984024  0.000000000000
   2   1 -0.143023012294  0.411497197261     -0.393836561660  0.000000000000      0.308939085073  0.244261906597
   2   2 -0.143023012294  0.411497197261      0.308939085073  0.244261906597     -0.393836561660  0.000000000000
   3   1 -0.203533712665 -0.151519519372     -0.466698973139  0.000000000000     -0.133866930239 -0.447087884557
   3   2 -0.203533712665 -0.151519519372     -0.133866930239 -0.447087884557     -0.466698973139  0.000000000000
   4   1 -0.145505202742 -0.130514810185     -0.480517492032  0.000000000000     -0.052039435351 -0.477691278251
   4   2  0.145505202742  0.130514810185      0.052039435351  0.477691278251      0.480517492032  0.000000000000
   5   1 -0.424463065192  0.256244890577      0.356489594758  0.000000000000      0.166052386993 -0.315454332582
   5   2 -0.424463065192  0.256244890577      0.166052386993 -0.315454332582      0.356489594758  0.000000000000
   6   1 -0.195154594402  0.316700312035     -0.425215002464  0.000000000000      0.191164817285  0.379820761614
   6   2  0.195154594402 -0.316700312035     -0.191164817285 -0.379820761614      0.425215002464  0.000000000000
     q-pt=    4    0.500000  0.343750  0.656250      0.0243902439
       1     114.185817                                                         
       2     136.718407                                                         
       3     196.455991                                                         
       4     224.898262                                                         
       5     268.109553                                                         
       6     276.530145                                                         
                        Phonon Eigenvectors
Mode Ion                X                                   Y                                   Z
   1   1  0.533713079329 -0.197668306077     -0.296713321007 -0.000000000000     -0.225131931245  0.193272885829
   1   2 -0.533713079329  0.197668306077      0.225131931245 -0.193272885829      0.296713321007  0.000000000000
   2   1  0.076627696859 -0.346368499320      0.432525755738 -0.000000000000     -0.392162642710 -0.182447228093
   2   2  0.076627696859 -0.346368499320     -0.392162642710 -0.182447228093      0.432525755738  0.000000000000
   3   1 -0.291418306847 -0.175263637375     -0.438382269172  0.000000000000     -0.205492115274 -0.387236367720
   3   2 -0.291418306847 -0.175263637375     -0.205492115274 -0.387236367720     -0.438382269172  0.000000000000
   4   1 -0.183227378319 -0.155524856035     -0.470233849797  0.000000000000     -0.076398755292 -0.463986102900
   4   2  0.183227378319  0.155524856035      0.076398755292  0.463986102900      0.470233849797  0.000000000000
   5   1  0.463036722411 -0.210028760651     -0.347480152957  0.000000000000     -0.228894637414  0.261437758677
   5   2  0.463036722411 -0.210028760651     -0.228894637414  0.261437758677     -0.347480152957  0.000000000000
   6   1  0.165272793528 -0.301665776042      0.436853901942 -0.000000000000     -0.235147090019 -0.368167322963
   6   2 -0.165272793528  0.301665776042      0.235147090019  0.368167322963     -0.436853901942  0.000000000000
     q-pt=    5    0.500000  0.375000  0.625000      0.0243902439
       1     103.221631                                                         
       2     128.364233                                                         
       3     199.549408                                                         
       4     228.488175                                                         
       5     274.161918                                                         
       6     278.599425                                                         
                        Phonon Eigenvectors
Mode Ion                X                                   Y                                   Z
   1   1 -0.545224147987  0.160001870137      0.297598748321 -0.000000000000      0.250405099099 -0.160817602729
   1   2  0.545224147987 -0.160001870137     -0.250405099099  0.160817602729     -0.297598748321  0.000000000000
   2   1 -0.034525384577  0.257402579690     -0.465054786981  0.000000000000      0.448617069672  0.122550722942
   2   2 -0.034525384577  0.257402579690      0.448617069672  0.122550722942     -0.465054786981  0.000000000000
   3   1  0.368409630495  0.159808948143      0.411543098747 -0.000000000000      0.281193835608  0.300495838477
   3   2  0.368409630495  0.159808948143      0.281193835608  0.300495838477      0.411543098747  0.000000000000
   4   1  0.218578240772  0.172605056584      0.459581900809  0.000000000000      0.106551575585  0.447059599261
   4   2 -0.218578240772 -0.172605056584     -0.106551575585 -0.447059599261     -0.459581900809  0.000000000000
   5   1  0.495829202478 -0.159501586231     -0.338166117433 -0.000000000000     -0.274741106599  0.197164011230
   5   2  0.495829202478 -0.159501586231     -0.274741106599  0.197164011230     -0.338166117433  0.000000000000
   6   1  0.138120890013 -0.283696487200      0.447458893583  0.000000000000     -0.275979361407 -0.352214215391
   6   2 -0.138120890013  0.283696487200      0.275979361407  0.352214215391     -0.447458893583  0.000000000000
     q-pt=    6    0.500000  0.406250  0.593750      0.0243902439
       1      90.827947                                                         
       2     113.068553                                                         
       3     207.201989                                                         
       4     231.893343                                                         
       5     281.936165                                                         
       6     283.060965                                                         
                        Phonon Eigenvectors
Mode Ion                X                                   Y                                   Z
   1   1  0.555674280910 -0.120932537519     -0.297154349543  0.000000000000     -0.270278617452  0.123491604575
   1   2 -0.555674280910  0.120932537519      0.270278617452 -0.123491604575      0.297154349543  0.000000000000
   2   1  0.012019642061 -0.166293799281      0.485902202364 -0.000000000000     -0.480851557549 -0.069876533012
   2   2  0.012019642061 -0.166293799281     -0.480851557549 -0.069876533012      0.485902202364  0.000000000000
   3   1 -0.414940841680 -0.109738888323     -0.397354674249  0.000000000000     -0.345403408615 -0.196436306381
   3   2 -0.414940841680 -0.109738888323     -0.345403408615 -0.196436306381     -0.397354674249  0.000000000000
   4   1 -0.281170327691 -0.174955298132     -0.441777031138  0.000000000000     -0.195164643222 -0.396330300730
   4   2  0.281170327691  0.174955298132      0.195164643222  0.396330300730      0.441777031138  0.000000000000
   5   1  0.087908376689 -0.243325754276      0.465330363620 -0.000000000000     -0.357882778451 -0.297409253714
   5   2 -0.087908376689  0.243325754276      0.357882778451  0.297409253714     -0.465330363620  0.000000000000
   6   1 -0.524338845567  0.114246005838      0.325589177630 -0.000000000000      0.296076093837 -0.135452055162
   6   2 -0.524338845567  0.114246005838      0.296076093837 -0.135452055162      0.325589177630  0.000000000000
     q-pt=    7    0.500000  0.437500  0.562500      0.0243902439
       1      76.026956                                                         
       2      90.563626                                                         
       3     217.469118                                                         
       4     232.451226                                                         
       5     288.629402                                                         
       6     292.008863                                                         
                        Phonon Eigenvectors
Mode Ion                X                                   Y                                   Z
   1   1 -0.565890646262  0.080195230550      0.294394719272 -0.000000000000      0.282802769712 -0.081797580518
   1   2  0.565890646262 -0.080195230550     -0.282802769712  0.081797580518     -0.294394719272  0.000000000000
   2   1 -0.003388177196  0.095038214355     -0.495457494679  0.000000000000      0.494199668970  0.035281953224
   2   2 -0.003388177196  0.095038214355      0.494199668970  0.035281953224     -0.495457494679  0.000000000000
   3   1  0.423415398385  0.059168967949      0.398257726631 -0.000000000000      0.383001406271  0.109174812184
   3   2  0.423415398385  0.059168967949      0.383001406271  0.109174812184      0.398257726631  0.000000000000
   4   1  0.357881812848  0.132383487805      0.420948464892 -0.000000000000      0.319615457570  0.273940813638
   4   2 -0.357881812848 -0.132383487805     -0.319615457570 -0.273940813638     -0.420948464892  0.000000000000
   5   1  0.032813799822 -0.163263517666      0.485936353003 -0.000000000000     -0.448201244612 -0.187749256985
   5   2 -0.032813799822  0.163263517666      0.448201244612  0.187749256985     -0.485936353003  0.000000000000
   6   1 -0.549914196151  0.075954384869      0.309697681853 -0.000000000000      0.298102523561 -0.083949625321
   6   2 -0.549914196151  0.075954384869      0.298102523561 -0.083949625321      0.309697681853  0.000000000000
     q-pt=    8    0.500000  0.468750  0.531250      0.0243902439
       1      61.234481                                                         
       2      66.388766                                                         
       3     226.022896                                                         
       4     229.605013                                                         
       5     296.906617                                                         
       6     298.402312                                                         
                        Phonon Eigenvectors
Mode Ion                X                                   Y                                   Z
   1   1 -0.574074029512  0.039917901091      0.290555992721  0.000000000000      0.287759815723 -0.040212850702
   1   2  0.574074029512 -0.039917901091     -0.287759815723  0.040212850702     -0.290555992721  0.000000000000
   2   1 -0.000626851943  0.042868899453     -0.499080086016  0.000000000000      0.498866706528  0.014592510967
   2   2 -0.000626851943  0.042868899453      0.498866706528  0.014592510967     -0.499080086016  0.000000000000
   3   1  0.414163649509  0.024317475261      0.404893277187 -0.000000000000      0.402111201425  0.047382988506
   3   2  0.414163649509  0.024317475261      0.402111201425  0.047382988506      0.404893277187  0.000000000000
   4   1  0.399009147679  0.062820363507      0.410393288199 -0.000000000000      0.390540040934  0.126099672586
   4   2 -0.399009147679 -0.062820363507     -0.390540040934 -0.126099672586     -0.410393288199  0.000000000000
   5   1  0.006134959990 -0.075187991569      0.497146421183 -0.000000000000     -0.490570463958 -0.080592704303
   5   2 -0.006134959990  0.075187991569      0.490570463958  0.080592704303     -0.497146421183  0.000000000000
   6   1 -0.569653884097  0.039159273118      0.294924569731  0.000000000000      0.292150351342 -0.040356833889
   6   2 -0.569653884097  0.039159273118      0.292150351342 -0.040356833889      0.294924569731  0.000000000000
     q-pt=    9    0.500000  0.500000  0.500000      0.0243902439
       1      54.259822                                                         
       2      54.259822                                                         
       3     227.748833                                                         
       4     229.294669                                                         
       5     300.699593                                                         
       6     300.699593                                                         
                        Phonon Eigenvectors
Mode Ion                X                                   Y                                   Z
   1   1  0.421897258168 -0.000000000000     -0.552272562706  0.000000000000      0.130375304538 -0.000000000000
   1   2 -0.421897258168 -0.000000000000      0.552272562706  0.000000000000     -0.130375304538  0.000000000000
   2   1  0.394126929915 -0.000000000000      0.168310278403 -0.000000000000     -0.562437208317  0.000000000000
   2   2 -0.394126929915 -0.000000000000     -0.168310278403  0.000000000000      0.562437208317  0.000000000000
   3   1  0.408248290464 -0.000000000000      0.408248290464 -0.000000000000      0.408248290464 -0.000000000000
   3   2 -0.408248290464  0.000000000000     -0.408248290464  0.000000000000     -0.408248290464  0.000000000000
   4   1 -0.408248290464  0.000000000000     -0.408248290464  0.000000000000     -0.408248290464  0.000000000000
   4   2 -0.408248290464  0.000000000000     -0.408248290464 -0.000000000000     -0.408248290464  0.000000000000
   5   1 -0.480234722652  0.000000000000      0.517661877340 -0.000000000000     -0.037427154689  0.000000000000
   5   2 -0.480234722652 -0.000000000000      0.517661877340  0.000000000000     -0.037427154689  0.000000000000
   6   1 -0.320480802066  0.000000000000     -0.255655068563  0.000000000000      0.576135870629 -0.000000000000
   6   2 -0.320480802066 -0.000000000000     -0.255655068563  0.000000000000      0.576135870629  0.000000000000
     q-pt=   10    0.450000  0.450000  0.450000      0.0243902439
       1      53.458075                                                         
       2      53.458075                                                         
       3     207.158755                                                         
       4     250.757520                                                         
       5     299.779758                                                         
       6     299.779758                                                         
                        Phonon Eigenvectors
Mode Ion                X                                   Y                                   Z
   1   1 -0.084645278118 -0.153146585959     -0.421657523241 -0.031862789890      0.506302801359  0.185009375849
   1   2  0.132065994399  0.114792303846      0.406980381914 -0.114792303846     -0.539046376313  0.000000000000
   2   1 -0.536364008518  0.122589900893      0.342134631155 -0.193563744571      0.194229377363  0.070973843678
   2   2  0.461708546700 -0.299232102788     -0.254917982318  0.299232102788     -0.206790564381  0.000000000000
   3   1 -0.042644045127  0.406014965342     -0.042644045127  0.406014965342     -0.042644045127  0.406014965342
   3   2 -0.408248290464  0.000000000000     -0.408248290464 -0.000000000000     -0.408248290464  0.000000000000
   4   1 -0.042644045127  0.406014965342     -0.042644045127  0.406014965342     -0.042644045127  0.406014965342
   4   2  0.408248290464 -0.000000000000      0.408248290464  0.000000000000      0.408248290464  0.000000000000
   5   1  0.408056064360  0.370768662302     -0.068990368339 -0.246869816346     -0.339065696021 -0.123898845956
   5   2  0.510523063296  0.208195471730     -0.149529337246 -0.208195471730     -0.360993726050  0.000000000000
   6   1  0.020500669982 -0.170099686236      0.402703809526  0.324743895986     -0.423204479509 -0.154644209750
   6   2 -0.039125557777 -0.166803391620      0.489699484104  0.166803391620     -0.450573926327  0.000000000000
     q-pt=   11    0.400000  0.400000  0.400000      0.0243902439
       1      52.204770                                                         
       2      52.204770                                                         
       3     189.411479                                                         
       4     269.301551                                                         
       5     297.586023                                                         
       6     297.586023                                                         
                        Phonon Eigenvectors
Mode Ion                X                                   Y                                   Z
   1   1 -0.028366793337 -0.068486123865      0.383374686829  0.365266510007     -0.355007893492 -0.296780386142
   1   2  0.065689436732  0.034349993131     -0.528408792324 -0.034349993131      0.462719355593  0.000000000000
   2   1  0.408342589554  0.401365966125     -0.143430104606 -0.179903764809     -0.264912484949 -0.221462201315
   2   2 -0.570718267476 -0.046032253653      0.225429792005  0.046032253653      0.345288475471  0.000000000000
   3   1  0.108133816967 -0.393667047510      0.108133816967 -0.393667047510      0.108133816967 -0.393667047510
   3   2  0.408248290464 -0.000000000000      0.408248290464 -0.000000000000      0.408248290464  0.000000000000
   4   1  0.108133816967 -0.393667047510      0.108133816967 -0.393667047510      0.108133816967 -0.393667047510
   4   2 -0.408248290464 -0.000000000000     -0.408248290464 -0.000000000000     -0.408248290464  0.000000000000
   5   1 -0.221435159612 -0.185177253824     -0.221519947805 -0.185125464039      0.442955107416  0.370302717863
   5   2 -0.288659216086 -0.000047057957     -0.288691050254  0.000047057957      0.577350266340  0.000000000000
   6   1 -0.426719387345  0.260614183327      0.426675377979 -0.260650974387      0.000044009367  0.000036791060
   6   2 -0.160234431423  0.473639224594      0.160177069358 -0.473639224594      0.000057362065  0.000000000000
     q-pt=   12    0.350000  0.350000  0.350000      0.0243902439
       1      53.008580                                                         
       2      53.008580                                                         
       3     174.712724                                                         
       4     280.569854                                                         
       5     295.507007                                                         
       6     295.507007                                                         
                        Phonon Eigenvectors
Mode Ion                X                                   Y                                   Z
   1   1  0.147468521299  0.523725847193     -0.090575533630 -0.428264773587     -0.056892987669 -0.095461073605
   1   2 -0.525384174445 -0.141446799308      0.414255291522  0.141446799308      0.111128882924  0.000000000000
   2   1  0.121679121392  0.149972654036      0.168371155678  0.336704386192     -0.290050277070 -0.486677040228
   2   2 -0.191122584516  0.027744607212     -0.375431653588 -0.027744607212      0.566554238104  0.000000000000
   3   1 -0.170893079331  0.370758981150     -0.170893079331  0.370758981150     -0.170893079331  0.370758981150
   3   2 -0.408248290464  0.000000000000     -0.408248290464 -0.000000000000     -0.408248290464  0.000000000000
   4   1 -0.170893079331  0.370758981150     -0.170893079331  0.370758981150     -0.170893079331  0.370758981150
   4   2  0.408248290464 -0.000000000000      0.408248290464  0.000000000000      0.408248290464  0.000000000000
   5   1  0.119626669606  0.150021247499      0.170374212261  0.336572912231     -0.290000881867 -0.486594159730
   5   2  0.190113563935 -0.025956648285      0.376344190683  0.025956648285     -0.566457754618  0.000000000000
   6   1  0.157341290599  0.521306183374     -0.100197053873 -0.425423537522     -0.057144236725 -0.095882645852
   6   2  0.528360067187  0.131727210375     -0.416740420321 -0.131727210375     -0.111619646866  0.000000000000
     q-pt=   13    0.300000  0.300000  0.300000      0.0243902439
       1      56.865384                                                         
       2      56.865384                                                         
       3     160.293428                                                         
       4     284.228741                                                         
       5     295.039784                                                         
       6     295.039784                                                         
                        Phonon Eigenvectors
Mode Ion                X                                   Y                                   Z
   1   1 -0.030403967730 -0.232269263831     -0.090289587726 -0.328518569121      0.120693555456  0.560787832953
   1   2  0.233466929830  0.019146927952      0.340161807173 -0.019146927952     -0.573628737004  0.000000000000
   2   1 -0.269324515059 -0.453788746827      0.255554076496  0.389806089499      0.013770438563  0.063982657329
   2   2  0.500297357390 -0.167816791019     -0.434849626970  0.167816791019     -0.065447730419  0.000000000000
   3   1 -0.232051703734  0.335884911035     -0.232051703734  0.335884911035     -0.232051703734  0.335884911035
   3   2 -0.408248290464  0.000000000000     -0.408248290464 -0.000000000000     -0.408248290464  0.000000000000
   4   1 -0.232051703734  0.335884911035     -0.232051703734  0.335884911035     -0.232051703734  0.335884911035
   4   2  0.408248290464 -0.000000000000      0.408248290464  0.000000000000      0.408248290464  0.000000000000
   5   1 -0.471333425145  0.154064718343      0.462213231805 -0.196440580417      0.009120193340  0.042375862073
   5   2  0.051445666412  0.493198214215     -0.094791849785 -0.493198214215      0.043346183373  0.000000000000
   6   1 -0.025423369699 -0.294611355025     -0.095710363754 -0.268221711115      0.121133733453  0.562833066139
   6   2 -0.293365533092 -0.037133034212     -0.282355268790  0.037133034212      0.575720801883  0.000000000000
     q-pt=   14    0.250000  0.250000  0.250000      0.0243902439
       1      61.324772                                                         
       2      61.324772                                                         
       3     143.544255                                                         
       4     283.941485                                                         
       5     297.103716                                                         
       6     297.103716                                                         
                        Phonon Eigenvectors
Mode Ion                X                                   Y                                   Z
   1   1 -0.163926142557  0.521936518500      0.151771615738 -0.404702858260      0.012154526819 -0.117233660240
   1   2 -0.536058649811 -0.109227439411      0.418196596479  0.109227439411      0.117862053332  0.000000000000
   2   1  0.003774236981  0.184471078794     -0.062059662702  0.377707432772      0.058285425721 -0.562178511566
   2   2 -0.183098334882  0.022777698289     -0.382093552637 -0.022777698289      0.565191887519  0.000000000000
   3   1 -0.287515790980  0.289829840775     -0.287515790980  0.289829840775     -0.287515790980  0.289829840775
   3   2 -0.408248290464  0.000000000000     -0.408248290464  0.000000000000     -0.408248290464  0.000000000000
   4   1 -0.287515790980  0.289829840775     -0.287515790980  0.289829840775     -0.287515790980  0.289829840775
   4   2  0.408248290464 -0.000000000000      0.408248290464  0.000000000000      0.408248290464  0.000000000000
   5   1 -0.029209148924  0.286851477366     -0.030330063141  0.287420138641      0.059539212065 -0.574271616008
   5   2  0.288334294715 -0.000528147373      0.289015518419  0.000528147373     -0.577349813133  0.000000000000
   6   1 -0.445937590158  0.226574611485      0.445862754630 -0.225852802817      0.000074835528 -0.000721808668
   6   2  0.271353930438  0.420194518433     -0.270628252749 -0.420194518433     -0.000725677689  0.000000000000
     q-pt=   15    0.200000  0.200000  0.200000      0.0243902439
       1      62.314524                                                         
       2      62.314524                                                         
       3     123.679977                                                         
       4     285.556920                                                         
       5     301.683652                                                         
       6     301.683652                                                         
                        Phonon Eigenvectors
Mode Ion                X                                   Y                                   Z
   1   1  0.431619084484 -0.054623332902     -0.495280413922  0.200334713879      0.063661329437 -0.145711380977
   1   2  0.222856498232  0.373649198827     -0.381867728691 -0.373649198827      0.159011230459  0.000000000000
   2   1 -0.243879822232  0.290821634431      0.021672871714  0.217777257686      0.222206950518 -0.508598892117
   2   2 -0.364136140008 -0.107048878017     -0.190885266715  0.107048878017      0.555021406724  0.000000000000
   3   1 -0.332756512642  0.236515897903     -0.332756512642  0.236515897903     -0.332756512642  0.236515897903
   3   2 -0.408248290464 -0.000000000000     -0.408248290464 -0.000000000000     -0.408248290464  0.000000000000
   4   1 -0.332756512642  0.236515897903     -0.332756512642  0.236515897903     -0.332756512642  0.236515897903
   4   2  0.408248290464  0.000000000000      0.408248290464 -0.000000000000      0.408248290464  0.000000000000
   5   1  0.117134437897 -0.244434937669      0.113827915870 -0.284203779404     -0.230962353767  0.528638717073
   5   2 -0.270885812543 -0.009475856570     -0.306004560098  0.009475856570      0.576890372641  0.000000000000
   6   1  0.036783744206  0.508440138267     -0.046007890061 -0.487327430714      0.009224145855 -0.021112707552
   6   2  0.451187079216 -0.237264910148     -0.428147303024  0.237264910148     -0.023039776191  0.000000000000
     q-pt=   16    0.150000  0.150000  0.150000      0.0243902439
       1      56.698597                                                         
       2      56.698597                                                         
       3     101.988620                                                         
       4     292.997449                                                         
       5     307.849142                                                         
       6     307.849142                                                         
                        Phonon Eigenvectors
Mode Ion                X                                   Y                                   Z
   1   1  0.191075951571 -0.216673535119      0.187285951603 -0.219409393408     -0.378361903174  0.436082928527
   1   2  0.288880635161  0.002327814104      0.288463326725 -0.002327814104     -0.577343961886  0.000000000000
   2   1  0.404520125155  0.293665390518     -0.406288719085 -0.291626988623      0.001768593930 -0.002038401895
   2   2  0.043288823598  0.497997962842     -0.045987528246 -0.497997962842      0.002698704648  0.000000000000
   3   1 -0.366381934333  0.180085937432     -0.366381934333  0.180085937432     -0.366381934333  0.180085937432
   3   2 -0.408248290464  0.000000000000     -0.408248290464  0.000000000000     -0.408248290464  0.000000000000
   4   1  0.366381934333 -0.180085937432      0.366381934333 -0.180085937432      0.366381934333 -0.180085937432
   4   2 -0.408248290464  0.000000000000     -0.408248290464 -0.000000000000     -0.408248290464  0.000000000000
   5   1  0.353967388095  0.144943090913     -0.528649906794  0.056388131068      0.174682518699 -0.201331221981
   5   2 -0.122492953481 -0.362349124168      0.389041716906  0.362349124168     -0.266548763425  0.000000000000
   6   1  0.397499364767 -0.170370704363     -0.061870290700 -0.216460285464     -0.335629074067  0.386830989828
   6   2 -0.389186319926 -0.188589316448     -0.122951444792  0.188589316448      0.512137764718  0.000000000000
     q-pt=   17    0.100000  0.100000  0.100000      0.0243902439
       1      43.410056                                                         
       2      43.410056                                                         
       3      81.292907                                                         
       4     304.950558                                                         
       5     314.056843                                                         
       6     314.056843                                                         
                        Phonon Eigenvectors
Mode Ion                X                                   Y                                   Z
   1   1 -0.235263613448  0.162642616154     -0.253174365114  0.144845868200      0.488437978562 -0.307488484354
   1   2 -0.285745101156  0.012301445739     -0.291421102734 -0.012301445739      0.577166203890  0.000000000000
   2   1 -0.360735587646 -0.348427296200      0.348399013856  0.356193593137      0.012336573790 -0.007766296937
   2   2 -0.119652847904 -0.487047164985      0.105075247930  0.487047164985      0.014577599974  0.000000000000
   3   1 -0.389646037665  0.121830341044     -0.389646037665  0.121830341044     -0.389646037665  0.121830341044
   3   2 -0.408248290464  0.000000000000     -0.408248290464 -0.000000000000     -0.408248290464  0.000000000000
   4   1  0.389646037665 -0.121830341044      0.389646037665 -0.121830341044      0.389646037665 -0.121830341044
   4   2 -0.408248290464  0.000000000000     -0.408248290464 -0.000000000000     -0.408248290464  0.000000000000
   5   1  0.275451576288 -0.158192497144      0.212140200633 -0.148763274211     -0.487591776921  0.306955771356
   5   2 -0.317384110612 -0.012874912160     -0.258782173102  0.012874912160      0.576166283714  0.000000000000
   6   1 -0.477893695237  0.063659346161      0.509168429994 -0.083347865914     -0.031274734757  0.019688519753
   6   2  0.438341581039  0.200727563213     -0.475297593326 -0.200727563213      0.036956012287  0.000000000000
     q-pt=   18    0.050000  0.050000  0.050000      0.0243902439
       1      23.568566                                                         
       2      23.568566                                                         
       3      65.535701                                                         
       4     315.915116                                                         
       5     318.635079                                                         
       6     318.635079                                                         
                        Phonon Eigenvectors
Mode Ion                X                                   Y                                   Z
   1   1  0.199201568213 -0.403666680518      0.200915792996  0.289689737763     -0.400117361209  0.113976942755
   1   2  0.302168982079 -0.333649456778      0.113865447050  0.333649456778     -0.416034429129  0.000000000000
   2   1  0.193388400273  0.305460645967      0.191606842945 -0.415129920663     -0.384995243218  0.109669274696
   2   2  0.102305441248  0.346754778317      0.298005296945 -0.346754778317     -0.400310738193  0.000000000000
   3   1 -0.403572612588  0.061610169901     -0.403572612588  0.061610169901     -0.403572612588  0.061610169901
   3   2 -0.408248290464 -0.000000000000     -0.408248290464 -0.000000000000     -0.408248290464  0.000000000000
   4   1 -0.403572612588  0.061610169901     -0.403572612588  0.061610169901     -0.403572612588  0.061610169901
   4   2  0.408248290464  0.000000000000      0.408248290464  0.000000000000      0.408248290464  0.000000000000
   5   1  0.140918747756  0.046694151492      0.381064588185 -0.195385686945     -0.521983335941  0.148691535453
   5   2 -0.122734988478 -0.083513830328     -0.420013365473  0.083513830328      0.542748353950  0.000000000000
   6   1  0.425697182418 -0.360661621138     -0.236359819383  0.306727211187     -0.189337363035  0.053934409951
   6   2 -0.508217415304  0.230238908228      0.311348023022 -0.230238908228      0.196869392283  0.000000000000
     q-pt=   19    0.000000  0.000000  0.000000      0.0243902439   -0.577350 -0.577350 -0.577350
       1      -0.016599              0.0000000                                  
       2      -0.016599              0.0000000                                  
       3      -0.016599              0.0000000                                  
       4     320.317220              0.0000000                                  
       5     320.317220              0.0000000                                  
       6     320.317220              0.0000000                                  
                        Phonon Eigenvectors
Mode Ion                X                                   Y                                   Z
   1   1 -0.047112607245  0.000000000000     -0.136840947737  0.000000000000     -0.692137961147  0.000000000000
   1   2 -0.047112607245  0.000000000000     -0.136840947737  0.000000000000     -0.692137961147  0.000000000000
   2   1  0.703859496082  0.000000000000     -0.056901788464  0.000000000000     -0.036660554337  0.000000000000
   2   2  0.703859496082  0.000000000000     -0.056901788464  0.000000000000     -0.036660554337  0.000000000000
   3   1  0.048602592660  0.000000000000      0.691402011490  0.000000000000     -0.140003737431  0.000000000000
   3   2  0.048602592660  0.000000000000      0.691402011490  0.000000000000     -0.140003737431  0.000000000000
   4   1 -0.515970819953  0.000000000000      0.483501926529  0.000000000000      0.000000000000  0.000000000000
   4   2  0.515970819953  0.000000000000     -0.483501926529  0.000000000000      0.000000000000  0.000000000000
   5   1  0.000000000000  0.000000000000      0.000000000000  0.000000000000     -0.707106781187  0.000000000000
   5   2 -0.000000000000  0.000000000000      0.000000000000  0.000000000000      0.707106781187  0.000000000000
   6   1  0.483501926529  0.000000000000      0.515970819953  0.000000000000      0.000000000000  0.000000000000
   6   2 -0.483501926529  0.000000000000     -0.515970819953  0.000000000000     -0.000000000000  0.000000000000
     q-pt=   19    0.000000  0.000000  0.000000      0.0243902439    0.707107  0.000000  0.707107
       1      -0.016599              0.0000000                                  
       2      -0.016599              0.0000000                                  
       3      -0.016599              0.0000000                                  
       4     320.317220              0.0000000                                  
       5     320.317220              0.0000000                                  
       6     320.317220              0.0000000                                  
                        Phonon Eigenvectors
Mode Ion                X                                   Y                                   Z
   1   1 -0.011083057618  0.000000000000     -0.703550478377  0.000000000000     -0.069956345028  0.000000000000
   1   2 -0.011083057618  0.000000000000     -0.703550478377  0.000000000000     -0.069956345028  0.000000000000
   2   1  0.707019912788  0.000000000000     -0.011019411805  0.000000000000     -0.001189741748  0.000000000000
   2   2  0.707019912788  0.000000000000     -0.011019411805  0.000000000000     -0.001189741748  0.000000000000
   3   1 -0.000093572292  0.000000000000      0.069966398645  0.000000000000     -0.703636763042  0.000000000000
   3   2 -0.000093572292  0.000000000000      0.069966398645  0.000000000000     -0.703636763042  0.000000000000
   4   1  0.078025227858  0.000000000000     -0.702788776104  0.000000000000      0.000000000000  0.000000000000
   4   2 -0.078025227858  0.000000000000      0.702788776104  0.000000000000     -0.000000000000  0.000000000000
   5   1  0.241198107066  0.000000000000      0.026778369124  0.000000000000      0.664158408887  0.000000000000
   5   2 -0.241198107066  0.000000000000     -0.026778369124  0.000000000000     -0.664158408887  0.000000000000
   6   1 -0.660102671533  0.000000000000     -0.073286118258  0.000000000000      0.242680052549  0.000000000000
   6   2  0.660102671533  0.000000000000      0.073286118258  0.000000000000     -0.242680052549  0.000000000000
     q-pt=   20    0.041667  0.000000  0.041667      0.0243902439
       1      24.665498                                                         
       2      24.665498                                                         
       3      63.832700                                                         
       4     317.518104                                                         
       5     318.082795                                                         
       6     318.082795                                                         
                        Phonon Eigenvectors
Mode Ion                X                                   Y                                   Z
   1   1  0.704401957404  0.037852707015     -0.000000000000 -0.000000000000     -0.002620592132  0.048766663554
   1   2  0.695094752245  0.129781683615     -0.000000000000 -0.000000000000      0.000000000000  0.000000000000
   2   1  0.006374510868  0.048419217141     -0.000000000000 -0.000000000000      0.699383325497 -0.092075561573
   2   2  0.000000000000 -0.000000000000      0.000000000000  0.000000000000      0.707106781187  0.000000000000
   3   1 -0.000000000000  0.000000000000     -0.701101901618 -0.091957183228      0.000000000000 -0.000000000000
   3   2 -0.000000000000  0.000000000000     -0.683101056685 -0.182682638354      0.000000000000  0.000000000000
   4   1 -0.000000000000  0.000000000000     -0.701101901618 -0.091957183228     -0.000000000000 -0.000000000000
   4   2  0.000000000000 -0.000000000000      0.683101056685  0.182682638354      0.000000000000  0.000000000000
   5   1 -0.423104485556  0.015452857052      0.000000000000  0.000000000000     -0.564560390044  0.044892866967
   5   2  0.422510686432  0.000747228550     -0.000000000000 -0.000000000000      0.566995733229  0.000000000000
   6   1  0.557123447044 -0.101770665051     -0.000000000000 -0.000000000000     -0.412853668818  0.093851183432
   6   2 -0.566994846522 -0.001002755080      0.000000000000  0.000000000000      0.422511347185  0.000000000000
     q-pt=   21    0.083333  0.000000  0.083333      0.0243902439
       1      47.316418                                                         
       2      47.316418                                                         
       3      75.373355                                                         
       4     310.302545                                                         
       5     311.842188                                                         
       6     311.842188                                                         
                        Phonon Eigenvectors
Mode Ion                X                                   Y                                   Z
   1   1 -0.044954433848 -0.095835949850      0.000000000000 -0.000000000000     -0.676021184583  0.178297301125
   1   2 -0.018819772834 -0.001110262687      0.000000000000 -0.000000000000     -0.706855419069  0.000000000000
   2   1  0.684241925624 -0.143553323931      0.000000000000  0.000000000000      0.002759136884  0.105819740928
   2   2  0.705628568938  0.041628189564     -0.000000000000  0.000000000000     -0.018852494073  0.000000000000
   3   1 -0.000000000000 -0.000000000000     -0.664748955363  0.241057724092     -0.000000000000  0.000000000000
   3   2  0.000000000000 -0.000000000000     -0.704488513947  0.060794191467     -0.000000000000  0.000000000000
   4   1  0.000000000000  0.000000000000     -0.664748955363  0.241057724092     -0.000000000000  0.000000000000
   4   2 -0.000000000000 -0.000000000000      0.704488513947 -0.060794191467      0.000000000000  0.000000000000
   5   1 -0.623836692900  0.120356663318      0.000000000000  0.000000000000     -0.310089971968 -0.013647837602
   5   2  0.640582131036  0.001546204292      0.000000000000 -0.000000000000      0.299419676457  0.000000000000
   6   1  0.262123879426 -0.166232144969      0.000000000000 -0.000000000000     -0.600936307768  0.206236514274
   6   2 -0.299418804223 -0.000722721752     -0.000000000000  0.000000000000      0.640583997108  0.000000000000
     q-pt=   22    0.125000  0.000000  0.125000      0.0243902439
       1      65.934506                                                         
       2      65.934506                                                         
       3      91.096485                                                         
       4     301.488893                                                         
       5     302.775792                                                         
       6     302.775792                                                         
                        Phonon Eigenvectors
Mode Ion                X                                   Y                                   Z
   1   1  0.688846969886 -0.030228322610      0.000000000000 -0.000000000000      0.055810761450  0.146496619407
   1   2  0.666658294437  0.230137118321      0.000000000000 -0.000000000000      0.051025731058  0.000000000000
   2   1  0.013934368977  0.156147154801     -0.000000000000  0.000000000000      0.632599306892 -0.274302782210
   2   2 -0.048232660123 -0.016650397216     -0.000000000000 -0.000000000000      0.705263337180  0.000000000000
   3   1  0.000000000000  0.000000000000     -0.667914852037  0.232141660260     -0.000000000000  0.000000000000
   3   2  0.000000000000  0.000000000000     -0.705909628601 -0.041129019548     -0.000000000000  0.000000000000
   4   1  0.000000000000 -0.000000000000      0.667914852037 -0.232141660260      0.000000000000 -0.000000000000
   4   2 -0.000000000000  0.000000000000     -0.705909628601 -0.041129019548     -0.000000000000  0.000000000000
   5   1 -0.222082706215 -0.075421405971      0.000000000000 -0.000000000000     -0.631355124967  0.215363853278
   5   2  0.181397643480 -0.006146606934     -0.000000000000 -0.000000000000      0.683415769618  0.000000000000
   6   1  0.588415829869 -0.314257369493     -0.000000000000 -0.000000000000     -0.096521572894  0.213758515256
   6   2 -0.683023767139  0.023144063741      0.000000000000  0.000000000000      0.181501751609  0.000000000000
     q-pt=   23    0.166667  0.000000  0.166667      0.0243902439
       1      78.717769                                                         
       2      78.717769                                                         
       3     109.017972                                                         
       4     292.503384                                                         
       5     292.503384                                                         
       6     293.942373                                                         
                        Phonon Eigenvectors
Mode Ion                X                                   Y                                   Z
   1   1 -0.177504941153 -0.245734186310     -0.000000000000  0.000000000000     -0.558680829469  0.309810323148
   1   2 -0.032771125885 -0.068831005056     -0.000000000000  0.000000000000     -0.702985309982  0.000000000000
   2   1  0.532402246341  0.353064517668      0.000000000000  0.000000000000     -0.196400768097  0.230911309264
   2   2  0.302195323135  0.634717521994     -0.000000000000  0.000000000000     -0.076234204586  0.000000000000
   3   1  0.000000000000  0.000000000000      0.090884502825 -0.701241760840     -0.000000000000  0.000000000000
   3   2 -0.000000000000  0.000000000000      0.429329168677 -0.561850927670     -0.000000000000  0.000000000000
   4   1  0.456471110574 -0.071938057233      0.000000000000  0.000000000000      0.520974021142 -0.122658511434
   4   2 -0.458042640281  0.016362310142     -0.000000000000 -0.000000000000     -0.538450754007  0.000000000000
   5   1  0.352561295066 -0.402690419993      0.000000000000 -0.000000000000     -0.277522062350  0.369489463688
   5   2 -0.538107529719  0.019222407516     -0.000000000000  0.000000000000      0.458334796311  0.000000000000
   6   1  0.000000000000 -0.000000000000     -0.090884502825  0.701241760840     -0.000000000000  0.000000000000
   6   2 -0.000000000000  0.000000000000      0.429329168677 -0.561850927670      0.000000000000  0.000000000000
     q-pt=   24    0.208333  0.000000  0.208333      0.0243902439
       1      84.585885                                                         
       2      84.585885                                                         
       3     127.837972                                                         
       4     283.026172                                                         
       5     283.026172                                                         
       6     289.261389                                                         
                        Phonon Eigenvectors
Mode Ion                X                                   Y                                   Z
   1   1  0.231950326004 -0.107318062408      0.000000000000 -0.000000000000      0.589284950285 -0.295677403796
   1   2  0.278550332413 -0.238427302492      0.000000000000  0.000000000000      0.604617344888  0.000000000000
   2   1  0.012465603332 -0.659186232017      0.000000000000  0.000000000000      0.003270588129  0.255553171582
   2   2  0.459328589302 -0.393165843874     -0.000000000000 -0.000000000000     -0.366657696307  0.000000000000
   3   1  0.000000000000 -0.000000000000     -0.696539600832  0.121789098330      0.000000000000 -0.000000000000
   3   2  0.000000000000 -0.000000000000     -0.626742524503 -0.327404654792      0.000000000000  0.000000000000
   4   1 -0.379714305300 -0.071170406429      0.000000000000  0.000000000000     -0.536858641255  0.250069228232
   4   2  0.288126345220 -0.000229934229     -0.000000000000 -0.000000000000      0.645742329664  0.000000000000
   5   1 -0.380135264262  0.454146452660      0.000000000000  0.000000000000      0.029224551897 -0.385219555536
   5   2  0.645742124042 -0.000515323293      0.000000000000 -0.000000000000     -0.288126436968  0.000000000000
   6   1  0.000000000000 -0.000000000000      0.696539600832 -0.121789098330      0.000000000000 -0.000000000000
   6   2 -0.000000000000  0.000000000000     -0.626742524503 -0.327404654792     -0.000000000000  0.000000000000
     q-pt=   25    0.250000  0.000000  0.250000      0.0243902439
       1      83.934443                                                         
       2      83.934443                                                         
       3     146.226940                                                         
       4     276.317956                                                         
       5     276.317956                                                         
       6     287.266519                                                         
                        Phonon Eigenvectors
Mode Ion                X                                   Y                                   Z
   1   1  0.406904927076  0.285971560607     -0.000000000000  0.000000000000      0.393147644169 -0.313182976436
   1   2  0.102516406519  0.133200107882     -0.000000000000  0.000000000000      0.686839222566  0.000000000000
   2   1  0.502571471814  0.008400152604      0.000000000000 -0.000000000000     -0.148040009687  0.474800493562
   2   2  0.418913897211  0.544297036900      0.000000000000 -0.000000000000     -0.168082962686  0.000000000000
   3   1  0.000000000000 -0.000000000000     -0.244183351915  0.663607180980     -0.000000000000  0.000000000000
   3   2  0.000000000000  0.000000000000     -0.641904841706  0.296577433723     -0.000000000000  0.000000000000
   4   1 -0.468485479556  0.040944309011     -0.000000000000  0.000000000000     -0.501674832166  0.164825003491
   4   2  0.431848652052 -0.007766780453      0.000000000000  0.000000000000      0.559862857173  0.000000000000
   5   1 -0.155777210312  0.504557607962     -0.000000000000 -0.000000000000      0.032513358765 -0.469145992733
   5   2  0.559772332860 -0.010067482652      0.000000000000  0.000000000000     -0.431918489021  0.000000000000
   6   1  0.000000000000  0.000000000000      0.244183351915 -0.663607180980     -0.000000000000  0.000000000000
   6   2  0.000000000000 -0.000000000000     -0.641904841706  0.296577433723      0.000000000000  0.000000000000
     q-pt=   26    0.291667  0.000000  0.291667      0.0243902439
       1      79.218652                                                         
       2      79.218652                                                         
       3     162.876936                                                         
       4     273.259582                                                         
       5     273.259582                                                         
       6     286.129268                                                         
                        Phonon Eigenvectors
Mode Ion                X                                   Y                                   Z
   1   1  0.471572460180  0.449056716599     -0.000000000000  0.000000000000     -0.210517932701  0.177903569635
   1   2 -0.090741403535  0.667926258812     -0.000000000000 -0.000000000000      0.213636397822  0.000000000000
   2   1  0.231321192936  0.149859887149      0.000000000000 -0.000000000000      0.411013405366 -0.505074747470
   2   2  0.028759473923 -0.211691764446      0.000000000000  0.000000000000      0.674061933004  0.000000000000
   3   1 -0.000000000000 -0.000000000000     -0.482030569023  0.517345658653     -0.000000000000 -0.000000000000
   3   2 -0.000000000000 -0.000000000000     -0.703879524402 -0.067480479604     -0.000000000000  0.000000000000
   4   1  0.484088694175 -0.017782168400     -0.000000000000 -0.000000000000      0.477876265368 -0.192291980220
   4   2 -0.405014409235  0.002379458182     -0.000000000000  0.000000000000     -0.579618552576  0.000000000000
   5   1 -0.059051043092  0.511717602755      0.000000000000  0.000000000000     -0.110887354793 -0.471552821949
   5   2  0.579608549899 -0.003405198124      0.000000000000 -0.000000000000     -0.405021398829  0.000000000000
   6   1 -0.000000000000 -0.000000000000      0.482030569023 -0.517345658653      0.000000000000 -0.000000000000
   6   2  0.000000000000  0.000000000000     -0.703879524402 -0.067480479604      0.000000000000  0.000000000000
     q-pt=   27    0.333333  0.000000  0.333333      0.0243902439
       1      74.356408                                                         
       2      74.356408                                                         
       3     177.206735                                                         
       4     273.124542                                                         
       5     273.124542                                                         
       6     283.129413                                                         
                        Phonon Eigenvectors
Mode Ion                X                                   Y                                   Z
   1   1  0.503153051287  0.214830384314     -0.000000000000  0.000000000000      0.282921282790 -0.347333356735
   1   2  0.096875094417  0.041668655007     -0.000000000000  0.000000000000      0.699198783803  0.000000000000
   2   1  0.311806035854 -0.321654953267     -0.000000000000  0.000000000000      0.272282857553  0.474528326369
   2   2  0.642302624901  0.276272107380     -0.000000000000 -0.000000000000     -0.105456439957  0.000000000000
   3   1 -0.000000000000  0.000000000000     -0.276361643160  0.650864227155     -0.000000000000  0.000000000000
   3   2  0.000000000000  0.000000000000     -0.701845776711  0.086095909969     -0.000000000000  0.000000000000
   4   1  0.486063673902  0.200106969523      0.000000000000 -0.000000000000      0.299174469904 -0.366324913456
   4   2 -0.103093393033 -0.008579170066     -0.000000000000  0.000000000000     -0.699498499036  0.000000000000
   5   1 -0.203758483875  0.426827583352      0.000000000000 -0.000000000000     -0.388283764552 -0.354311180355
   5   2  0.697088942381  0.058009969522     -0.000000000000 -0.000000000000     -0.103449745510  0.000000000000
   6   1 -0.000000000000 -0.000000000000      0.276361643160 -0.650864227155     -0.000000000000  0.000000000000
   6   2 -0.000000000000  0.000000000000     -0.701845776711  0.086095909969      0.000000000000  0.000000000000
     q-pt=   28    0.375000  0.000000  0.375000      0.0243902439
       1      72.254128                                                         
       2      72.254128                                                         
       3     189.881760                                                         
       4     274.497375                                                         
       5     274.497375                                                         
       6     276.001775                                                         
                        Phonon Eigenvectors
Mode Ion                X                                   Y                                   Z
   1   1 -0.250536707682 -0.157879836104      0.000000000000  0.000000000000      0.312168434341 -0.561120471964
   1   2  0.089030922431 -0.691722981308     -0.000000000000  0.000000000000      0.116588215450  0.000000000000
   2   1 -0.589984380814 -0.253424043554      0.000000000000 -0.000000000000     -0.101848536188  0.278067546148
   2   2  0.014883173199 -0.115634351027      0.000000000000  0.000000000000     -0.697428984211  0.000000000000
   3   1 -0.000000000000  0.000000000000     -0.210763821993  0.674965637154     -0.000000000000  0.000000000000
   3   2 -0.000000000000  0.000000000000     -0.704242760134  0.063577785421     -0.000000000000  0.000000000000
   4   1  0.397774340117 -0.220526551963      0.000000000000 -0.000000000000      0.535889418467  0.077240827282
   4   2 -0.634013126265 -0.048295192660     -0.000000000000 -0.000000000000     -0.309345971511  0.000000000000
   5   1  0.407663346682  0.356306342907      0.000000000000 -0.000000000000     -0.091763720959 -0.445461339840
   5   2  0.308452376356  0.023495991369     -0.000000000000  0.000000000000     -0.635849880011  0.000000000000
   6   1 -0.000000000000 -0.000000000000      0.210763821993 -0.674965637154     -0.000000000000  0.000000000000
   6   2 -0.000000000000 -0.000000000000     -0.704242760134  0.063577785421      0.000000000000  0.000000000000
     q-pt=   29    0.416667  0.000000  0.416667      0.0243902439
       1      72.436619                                                         
       2      72.436619                                                         
       3     202.478396                                                         
       4     264.140323                                                         
       5     276.394033                                                         
       6     276.394033                                                         
                        Phonon Eigenvectors
Mode Ion                X                                   Y                                   Z
   1   1 -0.634338084061 -0.181593012823     -0.000000000000  0.000000000000     -0.040989618300  0.250916368528
   1   2  0.027723791856 -0.035845562519     -0.000000000000 -0.000000000000     -0.705653234254  0.000000000000
   2   1  0.133063163434  0.216641102611     -0.000000000000  0.000000000000     -0.518126108697  0.408541506683
   2   2 -0.431713111821  0.558184804607      0.000000000000  0.000000000000     -0.045315703538  0.000000000000
   3   1  0.000000000000 -0.000000000000     -0.183998669905  0.682747749519      0.000000000000  0.000000000000
   3   2 -0.000000000000  0.000000000000     -0.707106044146 -0.001020946687      0.000000000000  0.000000000000
   4   1 -0.000000000000  0.000000000000      0.183998669905 -0.682747749519     -0.000000000000  0.000000000000
   4   2  0.000000000000  0.000000000000     -0.707106044146 -0.001020946687      0.000000000000  0.000000000000
   5   1 -0.606697406545 -0.041727872461     -0.000000000000  0.000000000000     -0.318341605914  0.169810669559
   5   2  0.288233927561  0.016371454903      0.000000000000 -0.000000000000      0.645486776369  0.000000000000
   6   1 -0.173113879326 -0.316557461351      0.000000000000 -0.000000000000      0.530247276312  0.297759608430
   6   2 -0.644448070863 -0.036604131300      0.000000000000  0.000000000000      0.288698495897  0.000000000000
     q-pt=   30    0.458333  0.000000  0.458333      0.0243902439
       1      72.800311                                                         
       2      72.800311                                                         
       3     216.456619                                                         
       4     248.796573                                                         
       5     278.149659                                                         
       6     278.149659                                                         
                        Phonon Eigenvectors
Mode Ion                X                                   Y                                   Z
   1   1  0.676921694300  0.073278454326     -0.000000000000  0.000000000000      0.094951384423 -0.165503844408
   1   2  0.074217049808 -0.028448946296     -0.000000000000  0.000000000000      0.702625424371  0.000000000000
   2   1  0.111657848544  0.154724958478      0.000000000000  0.000000000000     -0.665621693984  0.143319477324
   2   2 -0.656076488295  0.251487829683     -0.000000000000 -0.000000000000      0.079482784472  0.000000000000
   3   1 -0.000000000000 -0.000000000000     -0.117069686219  0.697348326569      0.000000000000  0.000000000000
   3   2  0.000000000000 -0.000000000000     -0.706663075331 -0.025045917107     -0.000000000000  0.000000000000
   4   1 -0.000000000000 -0.000000000000      0.117069686219 -0.697348326569      0.000000000000  0.000000000000
   4   2 -0.000000000000 -0.000000000000     -0.706663075331 -0.025045917107     -0.000000000000  0.000000000000
   5   1  0.239971624463 -0.111478885584      0.000000000000  0.000000000000      0.653105874409  0.058641234077
   5   2 -0.670352165001 -0.020770979327      0.000000000000 -0.000000000000     -0.224045846415  0.000000000000
   6   1  0.642238551373  0.132346970694     -0.000000000000  0.000000000000     -0.197586145005 -0.175993289021
   6   2  0.223938372707  0.006938769729      0.000000000000  0.000000000000     -0.670673884018  0.000000000000
     q-pt=   31    0.500000  0.000000  0.500000      0.0243902439
       1      72.808653                                                         
       2      72.808653                                                         
       3     232.220531                                                         
       4     232.220531                                                         
       5     278.900398                                                         
       6     278.900398                                                         
                        Phonon Eigenvectors
Mode Ion                X                                   Y                                   Z
   1   1 -0.706762261178  0.000000000000     -0.000000000000 -0.000000000000     -0.022070481986 -0.000000000000
   1   2 -0.022070481986 -0.000000000000      0.000000000000 -0.000000000000     -0.706762261178  0.000000000000
   2   1  0.022070481986 -0.000000000000     -0.000000000000 -0.000000000000     -0.706762261178 -0.000000000000
   2   2 -0.706762261178 -0.000000000000      0.000000000000  0.000000000000      0.022070481986  0.000000000000
   3   1 -0.000000000000  0.000000000000     -0.000000000000 -0.000000000000      0.000000000000 -0.000000000000
   3   2  0.000000000000  0.000000000000      1.000000000000 -0.000000000000      0.000000000000  0.000000000000
   4   1  0.000000000000  0.000000000000     -0.000000000000  1.000000000000     -0.000000000000 -0.000000000000
   4   2 -0.000000000000 -0.000000000000      0.000000000000  0.000000000000      0.000000000000  0.000000000000
   5   1  0.656473214291 -0.000000000000      0.000000000000 -0.000000000000      0.262760192797 -0.000000000000
   5   2 -0.262760192797  0.000000000000      0.000000000000 -0.000000000000     -0.656473214291  0.000000000000
   6   1  0.262760192797 -0.000000000000     -0.000000000000  0.000000000000     -0.656473214291  0.000000000000
   6   2  0.656473214291 -0.000000000000      0.000000000000  0.000000000000     -0.262760192797  0.000000000000
     q-pt=   32    0.500000  0.041667  0.541667      0.0243902439
       1      79.849794                                                         
       2      79.849794                                                         
       3     230.699388                                                         
       4     230.699388                                                         
       5     278.570393                                                         
       6     278.570393                                                         
                        Phonon Eigenvectors
Mode Ion                X                                   Y                                   Z
   1   1 -0.127780761005  0.016822656330     -0.005547515046 -0.049066725077     -0.688345732838  0.077824804978
   1   2 -0.695971980084 -0.012749641326     -0.000000000000  0.009142763777     -0.128261717539  0.000000000000
   2   1 -0.690133616057  0.090857814223      0.001027142683  0.009084883455      0.127449727894 -0.014409547041
   2   2  0.128861755441  0.002360642683     -0.000000000000  0.049379332043     -0.692731223625  0.000000000000
   3   1  0.000000000000  0.000000000000      0.474734397642 -0.854193938378      0.158120758504  0.087878594861
   3   2 -0.088915791811 -0.065947915780     -0.000000000000  0.000000000000     -0.000000000000  0.000000000000
   4   1  0.109755882068 -0.014449635999     -0.000000000000 -0.000000000000     -0.000000000000  0.000000000000
   4   2 -0.000000000000 -0.000000000000      0.000000000000 -0.977251263835     -0.180900032351  0.000000000000
   5   1  0.405528099448 -0.053388787134      0.022215495263  0.165427871500      0.550953430325 -0.073988156956
   5   2 -0.565056484641  0.001465072398     -0.000000000000  0.120822803611     -0.402397356064  0.000000000000
   6   1 -0.560224231143  0.073754919239      0.016081074454  0.119747855583      0.398817268272 -0.053557620331
   6   2 -0.409026010584  0.001060518257      0.000000000000 -0.166912878169      0.555899208271  0.000000000000
     q-pt=   33    0.500000  0.083333  0.583333      0.0243902439
       1      96.040591                                                         
       2      96.040591                                                         
       3     226.452933                                                         
       4     226.452933                                                         
       5     277.593530                                                         
       6     277.593530                                                         
                        Phonon Eigenvectors
Mode Ion                X                                   Y                                   Z
   1   1 -0.458104675959  0.122748777972     -0.020266893268 -0.073324977151     -0.499571528776  0.138080682012
   1   2 -0.530005027566  0.004169250314     -0.000000000000  0.068071526501     -0.463779163409  0.000000000000
   2   1 -0.511961383745  0.137179639330      0.018134880614  0.065611422978      0.447018194291 -0.123555033832
   2   2  0.474250185890 -0.003730658453     -0.000000000000  0.076074300765     -0.518302987748  0.000000000000
   3   1 -0.030911750323  0.008282778536      0.164387231604  0.893781053042     -0.326214382884  0.059998451667
   3   2  0.193297199615  0.015479110961      0.000000000000  0.149975891251      0.054738565609  0.000000000000
   4   1 -0.187308460574  0.050189150746     -0.027129031140 -0.147501808890      0.053835569011 -0.009901619777
   4   2 -0.031900079443 -0.002554537108     -0.000000000000  0.908772651818      0.331686053073  0.000000000000
   5   1  0.570938398299 -0.152982482752      0.048431115323  0.174819629184      0.295417661769 -0.081840963239
   5   2 -0.325792408139  0.002755469456     -0.000000000000  0.329106353198     -0.556137945084  0.000000000000
   6   1  0.314702556309 -0.084324295819     -0.087864502070 -0.317160560270     -0.535951434960  0.148477181167
   6   2  0.591057784412 -0.004999016646     -0.000000000000  0.181404177679     -0.306544512508  0.000000000000
     q-pt=   34    0.500000  0.125000  0.625000      0.0243902439
       1     113.819587                                                         
       2     113.819587                                                         
       3     220.517839                                                         
       4     220.517839                                                         
       5     275.753642                                                         
       6     275.753642                                                         
                        Phonon Eigenvectors
Mode Ion                X                                   Y                                   Z
   1   1 -0.628628277447  0.260386358210     -0.017713284415 -0.048505890208     -0.206590176466  0.075442189338
   1   2 -0.233882064478 -0.009961711221      0.000000000000  0.150094757828     -0.639264682566  0.000000000000
   2   1 -0.216274763695  0.089583940322      0.051485764124  0.140988128649      0.600478874883 -0.219281680026
   2   2  0.679805987562  0.028954896347      0.000000000000  0.051638956512     -0.219934137742  0.000000000000
   3   1 -0.219005837975  0.090715188328      0.029815103454  0.066491671039     -0.035229890025  0.015797208874
   3   2  0.020191218443 -0.000582202803      0.000000000000  0.855161213186      0.453097884643  0.000000000000
   4   1 -0.018662006659  0.007730056259     -0.349891725770 -0.780305376616      0.413436332318 -0.185386332256
   4   2 -0.236951727412  0.006832374200      0.000000000000  0.072870314337      0.038609544926  0.000000000000
   5   1 -0.570252154809  0.236206176494     -0.061873380799 -0.145450424436     -0.172796979730  0.073506374212
   5   2  0.211280953291 -0.002007897422     -0.000000000000 -0.461746745926      0.548561088120  0.000000000000
   6   1  0.195206962866 -0.080857371489     -0.180748822727 -0.424899894629     -0.504786553660  0.214731932052
   6   2  0.617208613439 -0.005865609579      0.000000000000  0.158063725188     -0.187781743664  0.000000000000
     q-pt=   35    0.500000  0.166667  0.666667      0.0243902439
       1     128.914123                                                         
       2     128.914123                                                         
       3     214.344134                                                         
       4     214.344134                                                         
       5     272.907389                                                         
       6     272.907389                                                         
                        Phonon Eigenvectors
Mode Ion                X                                   Y                                   Z
   1   1 -0.617865393443  0.356724751228     -0.028053466843 -0.048647212038     -0.135691491489  0.078249432965
   1   2 -0.180922932943 -0.000092113723      0.000000000000  0.221446746051     -0.617680602818  0.000000000000
   2   1 -0.156683876364  0.090461478196      0.110625718040  0.191834855656      0.535084264710 -0.308567912715
   2   2  0.713449409986  0.000363240192      0.000000000000  0.056156462148     -0.156637015491  0.000000000000
   3   1  0.016071662319 -0.009278978566     -0.455775856736 -0.663043856953      0.448747530610 -0.308468720549
   3   2 -0.221027813085  0.017413134533      0.000000000000 -0.067346055545     -0.045579754348  0.000000000000
   4   1 -0.192008811148  0.110856338803     -0.038149685000 -0.055498583152      0.037561394892 -0.025819675060
   4   2 -0.018500632100  0.001457526956      0.000000000000  0.804586097211      0.544543201028  0.000000000000
   5   1 -0.503051052432  0.290436660538     -0.108567795892 -0.199650035411     -0.199453332042  0.108460830465
   5   2  0.267012093382  0.006819748057     -0.000000000000 -0.494233151918      0.493746213232  0.000000000000
   6   1  0.231314667135 -0.133549585338     -0.236107570091 -0.434188465762     -0.433760685552  0.235874947270
   6   2  0.580683949926  0.014831231757      0.000000000000  0.227259989757     -0.227036083933  0.000000000000
     q-pt=   36    0.500000  0.208333  0.708333      0.0243902439
       1     139.231982                                                         
       2     139.231982                                                         
       3     209.432003                                                         
       4     209.432003                                                         
       5     269.947161                                                         
       6     269.947161                                                         
                        Phonon Eigenvectors
Mode Ion                X                                   Y                                   Z
   1   1  0.000002328847 -0.000001786987     -0.033097171436 -0.323643500720     -0.561275611465  0.057398449510
   1   2 -0.645898860724 -0.398307957933      0.000000000000 -0.000001258495      0.000002182532  0.000000000000
   2   1 -0.602026378397  0.461951087619     -0.000000128031 -0.000001251965     -0.000002171208  0.000000222037
   2   2 -0.000002498561 -0.000001540793      0.000000000000  0.325331428417     -0.564202883750  0.000000000000
   3   1  0.088455040622 -0.067873939892     -0.203622537174 -0.416818287059      0.343247791583 -0.167682149203
   3   2 -0.083450805943 -0.016923260635     -0.000000000000 -0.607427834751     -0.500213808505  0.000000000000
   4   1 -0.067553623538  0.051835718477     -0.266624332698 -0.545783876313      0.449450314543 -0.219563815269
   4   2 -0.109270887970 -0.022159399134     -0.000000000000  0.463896132849      0.382016164040  0.000000000000
   5   1 -0.088846784026  0.068174535178     -0.339815313571 -0.430005997326     -0.412687942364  0.326129596828
   5   2  0.625989192627 -0.008935608455     -0.000000000000 -0.098039074390      0.094090650207  0.000000000000
   6   1 -0.496681210601  0.381116897316      0.060786470535  0.076919861591      0.073821992261 -0.058338357150
   6   2 -0.111977512764  0.001598409720     -0.000000000000 -0.548068978390      0.525996056734  0.000000000000
     q-pt=   37    0.468750  0.281250  0.750000      0.0243902439
       1     133.114737                                                         
       2     145.017276                                                         
       3     204.575318                                                         
       4     212.998375                                                         
       5     267.922701                                                         
       6     271.239866                                                         
                        Phonon Eigenvectors
Mode Ion                X                                   Y                                   Z
   1   1  0.384453195795 -0.384453195795     -0.294176545681  0.294176545681      0.125123539809  0.125123539809
   1   2  0.000000000000  0.543698923591     -0.000000000000 -0.416028460634      0.176951406970  0.000000000000
   2   1  0.369147675063 -0.369147675063      0.243970183947 -0.243970183947     -0.232827282208 -0.232827282208
   2   2  0.000000000000 -0.522053648593      0.000000000000 -0.345025942952      0.329267500190  0.000000000000
   3   1 -0.122936611665  0.122936611665     -0.316701811532  0.316701811532     -0.366860398632 -0.366860398632
   3   2 -0.000000000000 -0.173858623529      0.000000000000 -0.447883997097     -0.518818951243  0.000000000000
   4   1 -0.019792664638  0.019792664638     -0.328927942018  0.328927942018     -0.376051405245 -0.376051405245
   4   2 -0.000000000000  0.027991054766      0.000000000000  0.465174356645      0.531816997446  0.000000000000
   5   1 -0.336657458587  0.336657458587      0.286853548531 -0.286853548531     -0.233188330053 -0.233188330053
   5   2  0.000000000000  0.476105543808     -0.000000000000 -0.405672178747      0.329778098949  0.000000000000
   6   1 -0.295097153079  0.295097153079     -0.251316777282  0.251316777282      0.315844182630  0.315844182630
   6   2 -0.000000000000 -0.417330396102      0.000000000000 -0.355415594884      0.446671126672  0.000000000000
     q-pt=   38    0.437500  0.312500  0.750000      0.0243902439
       1     112.721673                                                         
       2     144.112839                                                         
       3     205.283337                                                         
       4     216.988890                                                         
       5     269.346862                                                         
       6     274.986059                                                         
                        Phonon Eigenvectors
Mode Ion                X                                   Y                                   Z
   1   1  0.369150610814 -0.369150610814     -0.332314870036  0.332314870036      0.057399073934  0.057399073934
   1   2  0.000000000000  0.522057800372     -0.000000000000 -0.469964196183      0.081174548824  0.000000000000
   2   1  0.346739202859 -0.346739202859      0.261159707210 -0.261159707210     -0.248128056719 -0.248128056719
   2   2  0.000000000000 -0.490363283289      0.000000000000 -0.369335599882      0.350906063017  0.000000000000
   3   1 -0.210465823495  0.210465823495     -0.293516967489  0.293516967489     -0.345762818904 -0.345762818904
   3   2  0.000000000000 -0.297643622003      0.000000000000 -0.415095676210     -0.488982467859  0.000000000000
   4   1  0.067914317787 -0.067914317787      0.290828019575 -0.290828019575      0.401007117730  0.401007117730
   4   2 -0.000000000000 -0.096045349293     -0.000000000000 -0.411292929601     -0.567109704501  0.000000000000
   5   1 -0.353778985584  0.353778985584      0.311792672076 -0.311792672076     -0.166209984656 -0.166209984656
   5   2  0.000000000000  0.500319039495     -0.000000000000 -0.440941425498      0.235056414502  0.000000000000
   6   1 -0.263499456690  0.263499456690     -0.231116024864  0.231116024864      0.356585781229  0.356585781229
   6   2 -0.000000000000 -0.372644505329      0.000000000000 -0.326847416845      0.504288447964  0.000000000000
     q-pt=   39    0.406250  0.343750  0.750000      0.0243902439
       1      90.950379                                                         
       2     141.512218                                                         
       3     205.977301                                                         
       4     218.428469                                                         
       5     272.220383                                                         
       6     278.395515                                                         
                        Phonon Eigenvectors
Mode Ion                X                                   Y                                   Z
   1   1  0.358871619610 -0.358871619610     -0.347465602386  0.347465602386      0.021881860000  0.021881860000
   1   2  0.000000000000  0.507521111603     -0.000000000000 -0.491390567353      0.030945623182  0.000000000000
   2   1 -0.320913720167  0.320913720167     -0.277560955829  0.277560955829      0.264526558227  0.264526558227
   2   2  0.000000000000  0.453840535412     -0.000000000000  0.392530468119     -0.374097046253  0.000000000000
   3   1 -0.257871292982  0.257871292982     -0.286397605926  0.286397605926     -0.318557385060 -0.318557385060
   3   2  0.000000000000 -0.364685079881      0.000000000000 -0.405027378531     -0.450508174346  0.000000000000
   4   1  0.132788956697 -0.132788956697      0.243151000402 -0.243151000402      0.416226721851  0.416226721851
   4   2 -0.000000000000 -0.187791943495     -0.000000000000 -0.343867442474     -0.588633475063  0.000000000000
   5   1 -0.359696368049  0.359696368049      0.337398142856 -0.337398142856     -0.082346924714 -0.082346924714
   5   2  0.000000000000  0.508687482031     -0.000000000000 -0.477153029546      0.116456137751  0.000000000000
   6   1 -0.233909292023  0.233909292023     -0.217357002368  0.217357002368      0.384762753690  0.384762753690
   6   2 -0.000000000000 -0.330797693144      0.000000000000 -0.307389220626      0.544136704564  0.000000000000
     q-pt=   40    0.375000  0.375000  0.750000      0.0243902439
       1      80.933701                                                         
       2     140.076765                                                         
       3     206.063718                                                         
       4     218.532964                                                         
       5     273.763029                                                         
       6     279.795307                                                         
                        Phonon Eigenvectors
Mode Ion                X                                   Y                                   Z
   1   1 -0.300148299225 -0.399888732615      0.300148299225  0.399888732615      0.000000000000  0.000000000000
   1   2  0.495000932296  0.070527136809     -0.495000932296 -0.070527136809     -0.000000000000  0.000000000000
   2   1  0.296799830874 -0.296799830874      0.296799830874 -0.296799830874     -0.271697848329 -0.271697848329
   2   2  0.000000000000 -0.419738346131      0.000000000000 -0.419738346131      0.384238781975  0.000000000000
   3   1 -0.278937944282  0.278937944282     -0.278937944282  0.278937944282     -0.307225074626 -0.307225074626
   3   2  0.000000000000 -0.394477823865      0.000000000000 -0.394477823865     -0.434481867237  0.000000000000
   4   1 -0.192119390988  0.192119390988     -0.192119390988  0.192119390988     -0.419738346131 -0.419738346131
   4   2  0.000000000000  0.271697848329      0.000000000000  0.271697848329      0.593599661747  0.000000000000
   5   1 -0.236372497860 -0.440599639418      0.236372497860  0.440599639418     -0.000000000000 -0.000000000000
   5   2 -0.478691588944 -0.144410396698      0.478691588944  0.144410396698     -0.000000000000  0.000000000000
   6   1 -0.217240933619  0.217240933619     -0.217240933619  0.217240933619      0.394477823865  0.394477823865
   6   2 -0.000000000000 -0.307225074626      0.000000000000 -0.307225074626      0.557875888565  0.000000000000
